# Analytic Solution
# t	x(t)
0.000	1.000000
0.001	0.999998
0.002	0.999992
0.003	0.999982
0.004	0.999968
0.005	0.999950
0.006	0.999929
0.007	0.999903
0.008	0.999874
0.009	0.999840
0.010	0.999803
0.011	0.999762
0.012	0.999718
0.013	0.999669
0.014	0.999617
0.015	0.999561
0.016	0.999501
0.017	0.999438
0.018	0.999371
0.019	0.999300
0.020	0.999226
0.021	0.999148
0.022	0.999067
0.023	0.998982
0.024	0.998893
0.025	0.998801
0.026	0.998705
0.027	0.998606
0.028	0.998503
0.029	0.998397
0.030	0.998287
0.031	0.998174
0.032	0.998058
0.033	0.997938
0.034	0.997814
0.035	0.997688
0.036	0.997558
0.037	0.997424
0.038	0.997288
0.039	0.997148
0.040	0.997005
0.041	0.996858
0.042	0.996708
0.043	0.996555
0.044	0.996399
0.045	0.996240
0.046	0.996077
0.047	0.995912
0.048	0.995743
0.049	0.995571
0.050	0.995396
0.051	0.995217
0.052	0.995036
0.053	0.994852
0.054	0.994664
0.055	0.994474
0.056	0.994280
0.057	0.994084
0.058	0.993885
0.059	0.993682
0.060	0.993477
0.061	0.993268
0.062	0.993057
0.063	0.992843
0.064	0.992626
0.065	0.992406
0.066	0.992183
0.067	0.991958
0.068	0.991729
0.069	0.991498
0.070	0.991264
0.071	0.991027
0.072	0.990787
0.073	0.990545
0.074	0.990300
0.075	0.990052
0.076	0.989801
0.077	0.989548
0.078	0.989292
0.079	0.989033
0.080	0.988772
0.081	0.988508
0.082	0.988242
0.083	0.987972
0.084	0.987701
0.085	0.987426
0.086	0.987149
0.087	0.986870
0.088	0.986588
0.089	0.986303
0.090	0.986016
0.091	0.985727
0.092	0.985434
0.093	0.985140
0.094	0.984843
0.095	0.984543
0.096	0.984242
0.097	0.983937
0.098	0.983631
0.099	0.983321
0.100	0.983010
0.101	0.982696
0.102	0.982380
0.103	0.982061
0.104	0.981740
0.105	0.981417
0.106	0.981092
0.107	0.980764
0.108	0.980434
0.109	0.980101
0.110	0.979767
0.111	0.979430
0.112	0.979091
0.113	0.978749
0.114	0.978406
0.115	0.978060
0.116	0.977712
0.117	0.977362
0.118	0.977010
0.119	0.976656
0.120	0.976299
0.121	0.975941
0.122	0.975580
0.123	0.975217
0.124	0.974853
0.125	0.974486
0.126	0.974117
0.127	0.973746
0.128	0.973373
0.129	0.972997
0.130	0.972620
0.131	0.972241
0.132	0.971860
0.133	0.971477
0.134	0.971092
0.135	0.970705
0.136	0.970316
0.137	0.969925
0.138	0.969533
0.139	0.969138
0.140	0.968741
0.141	0.968343
0.142	0.967942
0.143	0.967540
0.144	0.967136
0.145	0.966730
0.146	0.966323
0.147	0.965913
0.148	0.965502
0.149	0.965088
0.150	0.964673
0.151	0.964257
0.152	0.963838
0.153	0.963418
0.154	0.962996
0.155	0.962572
0.156	0.962147
0.157	0.961719
0.158	0.961290
0.159	0.960860
0.160	0.960428
0.161	0.959994
0.162	0.959558
0.163	0.959121
0.164	0.958682
0.165	0.958241
0.166	0.957799
0.167	0.957355
0.168	0.956910
0.169	0.956463
0.170	0.956014
0.171	0.955564
0.172	0.955112
0.173	0.954659
0.174	0.954204
0.175	0.953748
0.176	0.953290
0.177	0.952830
0.178	0.952369
0.179	0.951907
0.180	0.951443
0.181	0.950977
0.182	0.950511
0.183	0.950042
0.184	0.949572
0.185	0.949101
0.186	0.948628
0.187	0.948154
0.188	0.947679
0.189	0.947202
0.190	0.946723
0.191	0.946244
0.192	0.945762
0.193	0.945280
0.194	0.944796
0.195	0.944311
0.196	0.943824
0.197	0.943336
0.198	0.942847
0.199	0.942357
0.200	0.941865
0.201	0.941371
0.202	0.940877
0.203	0.940381
0.204	0.939884
0.205	0.939386
0.206	0.938886
0.207	0.938385
0.208	0.937883
0.209	0.937380
0.210	0.936875
0.211	0.936370
0.212	0.935863
0.213	0.935355
0.214	0.934845
0.215	0.934335
0.216	0.933823
0.217	0.933310
0.218	0.932796
0.219	0.932281
0.220	0.931764
0.221	0.931247
0.222	0.930728
0.223	0.930208
0.224	0.929687
0.225	0.929165
0.226	0.928642
0.227	0.928118
0.228	0.927592
0.229	0.927066
0.230	0.926538
0.231	0.926010
0.232	0.925480
0.233	0.924950
0.234	0.924418
0.235	0.923885
0.236	0.923351
0.237	0.922817
0.238	0.922281
0.239	0.921744
0.240	0.921206
0.241	0.920667
0.242	0.920128
0.243	0.919587
0.244	0.919045
0.245	0.918502
0.246	0.917959
0.247	0.917414
0.248	0.916868
0.249	0.916322
0.250	0.915775
0.251	0.915226
0.252	0.914677
0.253	0.914127
0.254	0.913576
0.255	0.913024
0.256	0.912471
0.257	0.911917
0.258	0.911362
0.259	0.910807
0.260	0.910251
0.261	0.909693
0.262	0.909135
0.263	0.908576
0.264	0.908017
0.265	0.907456
0.266	0.906895
0.267	0.906332
0.268	0.905769
0.269	0.905205
0.270	0.904641
0.271	0.904075
0.272	0.903509
0.273	0.902942
0.274	0.902374
0.275	0.901806
0.276	0.901236
0.277	0.900666
0.278	0.900096
0.279	0.899524
0.280	0.898952
0.281	0.898379
0.282	0.897805
0.283	0.897230
0.284	0.896655
0.285	0.896079
0.286	0.895503
0.287	0.894925
0.288	0.894347
0.289	0.893769
0.290	0.893189
0.291	0.892609
0.292	0.892029
0.293	0.891447
0.294	0.890865
0.295	0.890283
0.296	0.889699
0.297	0.889115
0.298	0.888531
0.299	0.887945
0.300	0.887360
0.301	0.886773
0.302	0.886186
0.303	0.885598
0.304	0.885010
0.305	0.884421
0.306	0.883832
0.307	0.883242
0.308	0.882651
0.309	0.882060
0.310	0.881468
0.311	0.880876
0.312	0.880283
0.313	0.879689
0.314	0.879095
0.315	0.878500
0.316	0.877905
0.317	0.877310
0.318	0.876714
0.319	0.876117
0.320	0.875520
0.321	0.874922
0.322	0.874324
0.323	0.873725
0.324	0.873126
0.325	0.872526
0.326	0.871926
0.327	0.871325
0.328	0.870724
0.329	0.870122
0.330	0.869520
0.331	0.868917
0.332	0.868314
0.333	0.867711
0.334	0.867107
0.335	0.866502
0.336	0.865897
0.337	0.865292
0.338	0.864686
0.339	0.864080
0.340	0.863474
0.341	0.862866
0.342	0.862259
0.343	0.861651
0.344	0.861043
0.345	0.860434
0.346	0.859825
0.347	0.859216
0.348	0.858606
0.349	0.857996
0.350	0.857385
0.351	0.856774
0.352	0.856163
0.353	0.855551
0.354	0.854939
0.355	0.854327
0.356	0.853714
0.357	0.853101
0.358	0.852487
0.359	0.851873
0.360	0.851259
0.361	0.850645
0.362	0.850030
0.363	0.849415
0.364	0.848799
0.365	0.848183
0.366	0.847567
0.367	0.846951
0.368	0.846334
0.369	0.845717
0.370	0.845100
0.371	0.844482
0.372	0.843864
0.373	0.843246
0.374	0.842628
0.375	0.842009
0.376	0.841390
0.377	0.840771
0.378	0.840151
0.379	0.839531
0.380	0.838911
0.381	0.838291
0.382	0.837670
0.383	0.837050
0.384	0.836428
0.385	0.835807
0.386	0.835186
0.387	0.834564
0.388	0.833942
0.389	0.833320
0.390	0.832697
0.391	0.832074
0.392	0.831452
0.393	0.830828
0.394	0.830205
0.395	0.829582
0.396	0.828958
0.397	0.828334
0.398	0.827710
0.399	0.827086
0.400	0.826461
0.401	0.825837
0.402	0.825212
0.403	0.824587
0.404	0.823962
0.405	0.823336
0.406	0.822711
0.407	0.822085
0.408	0.821459
0.409	0.820833
0.410	0.820207
0.411	0.819581
0.412	0.818954
0.413	0.818328
0.414	0.817701
0.415	0.817074
0.416	0.816447
0.417	0.815820
0.418	0.815193
0.419	0.814565
0.420	0.813938
0.421	0.813310
0.422	0.812682
0.423	0.812055
0.424	0.811427
0.425	0.810799
0.426	0.810170
0.427	0.809542
0.428	0.808914
0.429	0.808285
0.430	0.807657
0.431	0.807028
0.432	0.806399
0.433	0.805771
0.434	0.805142
0.435	0.804513
0.436	0.803884
0.437	0.803255
0.438	0.802625
0.439	0.801996
0.440	0.801367
0.441	0.800738
0.442	0.800108
0.443	0.799479
0.444	0.798849
0.445	0.798220
0.446	0.797590
0.447	0.796960
0.448	0.796331
0.449	0.795701
0.450	0.795071
0.451	0.794441
0.452	0.793812
0.453	0.793182
0.454	0.792552
0.455	0.791922
0.456	0.791292
0.457	0.790662
0.458	0.790032
0.459	0.789402
0.460	0.788772
0.461	0.788142
0.462	0.787512
0.463	0.786883
0.464	0.786253
0.465	0.785623
0.466	0.784993
0.467	0.784363
0.468	0.783733
0.469	0.783103
0.470	0.782473
0.471	0.781843
0.472	0.781213
0.473	0.780583
0.474	0.779954
0.475	0.779324
0.476	0.778694
0.477	0.778064
0.478	0.777435
0.479	0.776805
0.480	0.776176
0.481	0.775546
0.482	0.774916
0.483	0.774287
0.484	0.773658
0.485	0.773028
0.486	0.772399
0.487	0.771770
0.488	0.771141
0.489	0.770511
0.490	0.769882
0.491	0.769253
0.492	0.768624
0.493	0.767996
0.494	0.767367
0.495	0.766738
0.496	0.766110
0.497	0.765481
0.498	0.764852
0.499	0.764224
0.500	0.763596
0.501	0.762968
0.502	0.762339
0.503	0.761711
0.504	0.761083
0.505	0.760456
0.506	0.759828
0.507	0.759200
0.508	0.758573
0.509	0.757945
0.510	0.757318
0.511	0.756691
0.512	0.756064
0.513	0.755436
0.514	0.754810
0.515	0.754183
0.516	0.753556
0.517	0.752930
0.518	0.752303
0.519	0.751677
0.520	0.751051
0.521	0.750425
0.522	0.749799
0.523	0.749173
0.524	0.748547
0.525	0.747922
0.526	0.747296
0.527	0.746671
0.528	0.746046
0.529	0.745421
0.530	0.744796
0.531	0.744171
0.532	0.743547
0.533	0.742922
0.534	0.742298
0.535	0.741674
0.536	0.741050
0.537	0.740426
0.538	0.739803
0.539	0.739179
0.540	0.738556
0.541	0.737933
0.542	0.737310
0.543	0.736687
0.544	0.736064
0.545	0.735442
0.546	0.734820
0.547	0.734197
0.548	0.733575
0.549	0.732954
0.550	0.732332
0.551	0.731711
0.552	0.731089
0.553	0.730468
0.554	0.729847
0.555	0.729227
0.556	0.728606
0.557	0.727986
0.558	0.727366
0.559	0.726746
0.560	0.726126
0.561	0.725506
0.562	0.724887
0.563	0.724268
0.564	0.723649
0.565	0.723030
0.566	0.722411
0.567	0.721793
0.568	0.721175
0.569	0.720557
0.570	0.719939
0.571	0.719322
0.572	0.718704
0.573	0.718087
0.574	0.717470
0.575	0.716854
0.576	0.716237
0.577	0.715621
0.578	0.715005
0.579	0.714389
0.580	0.713773
0.581	0.713158
0.582	0.712543
0.583	0.711928
0.584	0.711313
0.585	0.710699
0.586	0.710084
0.587	0.709470
0.588	0.708857
0.589	0.708243
0.590	0.707630
0.591	0.707017
0.592	0.706404
0.593	0.705791
0.594	0.705179
0.595	0.704567
0.596	0.703955
0.597	0.703343
0.598	0.702732
0.599	0.702120
0.600	0.701510
0.601	0.700899
0.602	0.700288
0.603	0.699678
0.604	0.699068
0.605	0.698459
0.606	0.697849
0.607	0.697240
0.608	0.696631
0.609	0.696023
0.610	0.695414
0.611	0.694806
0.612	0.694198
0.613	0.693591
0.614	0.692983
0.615	0.692376
0.616	0.691769
0.617	0.691163
0.618	0.690557
0.619	0.689951
0.620	0.689345
0.621	0.688739
0.622	0.688134
0.623	0.687529
0.624	0.686925
0.625	0.686320
0.626	0.685716
0.627	0.685112
0.628	0.684509
0.629	0.683906
0.630	0.683303
0.631	0.682700
0.632	0.682097
0.633	0.681495
0.634	0.680893
0.635	0.680292
0.636	0.679691
0.637	0.679090
0.638	0.678489
0.639	0.677888
0.640	0.677288
0.641	0.676688
0.642	0.676089
0.643	0.675490
0.644	0.674891
0.645	0.674292
0.646	0.673694
0.647	0.673096
0.648	0.672498
0.649	0.671900
0.650	0.671303
0.651	0.670706
0.652	0.670110
0.653	0.669513
0.654	0.668917
0.655	0.668322
0.656	0.667726
0.657	0.667131
0.658	0.666537
0.659	0.665942
0.660	0.665348
0.661	0.664754
0.662	0.664161
0.663	0.663567
0.664	0.662975
0.665	0.662382
0.666	0.661790
0.667	0.661198
0.668	0.660606
0.669	0.660015
0.670	0.659424
0.671	0.658833
0.672	0.658243
0.673	0.657653
0.674	0.657063
0.675	0.656473
0.676	0.655884
0.677	0.655295
0.678	0.654707
0.679	0.654119
0.680	0.653531
0.681	0.652944
0.682	0.652356
0.683	0.651770
0.684	0.651183
0.685	0.650597
0.686	0.650011
0.687	0.649425
0.688	0.648840
0.689	0.648255
0.690	0.647671
0.691	0.647087
0.692	0.646503
0.693	0.645919
0.694	0.645336
0.695	0.644753
0.696	0.644171
0.697	0.643588
0.698	0.643006
0.699	0.642425
0.700	0.641844
0.701	0.641263
0.702	0.640682
0.703	0.640102
0.704	0.639522
0.705	0.638943
0.706	0.638364
0.707	0.637785
0.708	0.637206
0.709	0.636628
0.710	0.636050
0.711	0.635473
0.712	0.634896
0.713	0.634319
0.714	0.633743
0.715	0.633167
0.716	0.632591
0.717	0.632015
0.718	0.631440
0.719	0.630866
0.720	0.630291
0.721	0.629717
0.722	0.629144
0.723	0.628571
0.724	0.627998
0.725	0.627425
0.726	0.626853
0.727	0.626281
0.728	0.625709
0.729	0.625138
0.730	0.624567
0.731	0.623997
0.732	0.623427
0.733	0.622857
0.734	0.622288
0.735	0.621719
0.736	0.621150
0.737	0.620582
0.738	0.620014
0.739	0.619446
0.740	0.618879
0.741	0.618312
0.742	0.617746
0.743	0.617179
0.744	0.616614
0.745	0.616048
0.746	0.615483
0.747	0.614918
0.748	0.614354
0.749	0.613790
0.750	0.613226
0.751	0.612663
0.752	0.612100
0.753	0.611538
0.754	0.610976
0.755	0.610414
0.756	0.609852
0.757	0.609291
0.758	0.608731
0.759	0.608170
0.760	0.607610
0.761	0.607051
0.762	0.606491
0.763	0.605933
0.764	0.605374
0.765	0.604816
0.766	0.604258
0.767	0.603701
0.768	0.603144
0.769	0.602587
0.770	0.602031
0.771	0.601475
0.772	0.600920
0.773	0.600364
0.774	0.599810
0.775	0.599255
0.776	0.598701
0.777	0.598148
0.778	0.597594
0.779	0.597041
0.780	0.596489
0.781	0.595937
0.782	0.595385
0.783	0.594834
0.784	0.594283
0.785	0.593732
0.786	0.593182
0.787	0.592632
0.788	0.592082
0.789	0.591533
0.790	0.590984
0.791	0.590436
0.792	0.589888
0.793	0.589341
0.794	0.588793
0.795	0.588246
0.796	0.587700
0.797	0.587154
0.798	0.586608
0.799	0.586063
0.800	0.585518
0.801	0.584973
0.802	0.584429
0.803	0.583885
0.804	0.583342
0.805	0.582799
0.806	0.582256
0.807	0.581714
0.808	0.581172
0.809	0.580631
0.810	0.580089
0.811	0.579549
0.812	0.579008
0.813	0.578468
0.814	0.577929
0.815	0.577390
0.816	0.576851
0.817	0.576312
0.818	0.575774
0.819	0.575237
0.820	0.574699
0.821	0.574163
0.822	0.573626
0.823	0.573090
0.824	0.572554
0.825	0.572019
0.826	0.571484
0.827	0.570949
0.828	0.570415
0.829	0.569881
0.830	0.569348
0.831	0.568815
0.832	0.568282
0.833	0.567750
0.834	0.567218
0.835	0.566687
0.836	0.566156
0.837	0.565625
0.838	0.565095
0.839	0.564565
0.840	0.564036
0.841	0.563507
0.842	0.562978
0.843	0.562449
0.844	0.561922
0.845	0.561394
0.846	0.560867
0.847	0.560340
0.848	0.559814
0.849	0.559288
0.850	0.558762
0.851	0.558237
0.852	0.557712
0.853	0.557188
0.854	0.556664
0.855	0.556140
0.856	0.555617
0.857	0.555094
0.858	0.554572
0.859	0.554050
0.860	0.553528
0.861	0.553007
0.862	0.552486
0.863	0.551965
0.864	0.551445
0.865	0.550925
0.866	0.550406
0.867	0.549887
0.868	0.549369
0.869	0.548851
0.870	0.548333
0.871	0.547816
0.872	0.547299
0.873	0.546782
0.874	0.546266
0.875	0.545750
0.876	0.545235
0.877	0.544720
0.878	0.544205
0.879	0.543691
0.880	0.543177
0.881	0.542664
0.882	0.542151
0.883	0.541638
0.884	0.541126
0.885	0.540614
0.886	0.540103
0.887	0.539592
0.888	0.539081
0.889	0.538571
0.890	0.538061
0.891	0.537552
0.892	0.537043
0.893	0.536534
0.894	0.536026
0.895	0.535518
0.896	0.535011
0.897	0.534504
0.898	0.533997
0.899	0.533491
0.900	0.532985
0.901	0.532480
0.902	0.531974
0.903	0.531470
0.904	0.530965
0.905	0.530462
0.906	0.529958
0.907	0.529455
0.908	0.528952
0.909	0.528450
0.910	0.527948
0.911	0.527447
0.912	0.526946
0.913	0.526445
0.914	0.525945
0.915	0.525445
0.916	0.524945
0.917	0.524446
0.918	0.523947
0.919	0.523449
0.920	0.522951
0.921	0.522454
0.922	0.521956
0.923	0.521460
0.924	0.520963
0.925	0.520467
0.926	0.519972
0.927	0.519477
0.928	0.518982
0.929	0.518488
0.930	0.517994
0.931	0.517500
0.932	0.517007
0.933	0.516514
0.934	0.516022
0.935	0.515530
0.936	0.515038
0.937	0.514547
0.938	0.514056
0.939	0.513566
0.940	0.513076
0.941	0.512586
0.942	0.512097
0.943	0.511608
0.944	0.511120
0.945	0.510632
0.946	0.510144
0.947	0.509657
0.948	0.509170
0.949	0.508684
0.950	0.508198
0.951	0.507712
0.952	0.507227
0.953	0.506742
0.954	0.506258
0.955	0.505774
0.956	0.505290
0.957	0.504807
0.958	0.504324
0.959	0.503841
0.960	0.503359
0.961	0.502878
0.962	0.502396
0.963	0.501915
0.964	0.501435
0.965	0.500955
0.966	0.500475
0.967	0.499996
0.968	0.499517
0.969	0.499039
0.970	0.498560
0.971	0.498083
0.972	0.497605
0.973	0.497128
0.974	0.496652
0.975	0.496176
0.976	0.495700
0.977	0.495225
0.978	0.494750
0.979	0.494275
0.980	0.493801
0.981	0.493327
0.982	0.492854
0.983	0.492381
0.984	0.491908
0.985	0.491436
0.986	0.490964
0.987	0.490493
0.988	0.490022
0.989	0.489551
0.990	0.489081
0.991	0.488611
0.992	0.488142
0.993	0.487673
0.994	0.487204
0.995	0.486736
0.996	0.486268
0.997	0.485801
0.998	0.485334
0.999	0.484867
1.000	0.484401
1.001	0.483935
1.002	0.483469
1.003	0.483004
1.004	0.482540
1.005	0.482075
1.006	0.481611
1.007	0.481148
1.008	0.480685
1.009	0.480222
1.010	0.479759
1.011	0.479298
1.012	0.478836
1.013	0.478375
1.014	0.477914
1.015	0.477454
1.016	0.476994
1.017	0.476534
1.018	0.476075
1.019	0.475616
1.020	0.475157
1.021	0.474699
1.022	0.474242
1.023	0.473784
1.024	0.473328
1.025	0.472871
1.026	0.472415
1.027	0.471959
1.028	0.471504
1.029	0.471049
1.030	0.470594
1.031	0.470140
1.032	0.469687
1.033	0.469233
1.034	0.468780
1.035	0.468328
1.036	0.467875
1.037	0.467424
1.038	0.466972
1.039	0.466521
1.040	0.466070
1.041	0.465620
1.042	0.465170
1.043	0.464721
1.044	0.464272
1.045	0.463823
1.046	0.463375
1.047	0.462927
1.048	0.462479
1.049	0.462032
1.050	0.461585
1.051	0.461139
1.052	0.460693
1.053	0.460247
1.054	0.459802
1.055	0.459357
1.056	0.458913
1.057	0.458468
1.058	0.458025
1.059	0.457581
1.060	0.457139
1.061	0.456696
1.062	0.456254
1.063	0.455812
1.064	0.455371
1.065	0.454930
1.066	0.454489
1.067	0.454049
1.068	0.453609
1.069	0.453170
1.070	0.452730
1.071	0.452292
1.072	0.451853
1.073	0.451416
1.074	0.450978
1.075	0.450541
1.076	0.450104
1.077	0.449668
1.078	0.449232
1.079	0.448796
1.080	0.448361
1.081	0.447926
1.082	0.447491
1.083	0.447057
1.084	0.446624
1.085	0.446190
1.086	0.445757
1.087	0.445325
1.088	0.444892
1.089	0.444461
1.090	0.444029
1.091	0.443598
1.092	0.443167
1.093	0.442737
1.094	0.442307
1.095	0.441878
1.096	0.441449
1.097	0.441020
1.098	0.440591
1.099	0.440163
1.100	0.439736
1.101	0.439308
1.102	0.438882
1.103	0.438455
1.104	0.438029
1.105	0.437603
1.106	0.437178
1.107	0.436753
1.108	0.436328
1.109	0.435904
1.110	0.435480
1.111	0.435056
1.112	0.434633
1.113	0.434211
1.114	0.433788
1.115	0.433366
1.116	0.432945
1.117	0.432523
1.118	0.432103
1.119	0.431682
1.120	0.431262
1.121	0.430842
1.122	0.430423
1.123	0.430004
1.124	0.429585
1.125	0.429167
1.126	0.428749
1.127	0.428332
1.128	0.427914
1.129	0.427498
1.130	0.427081
1.131	0.426665
1.132	0.426250
1.133	0.425834
1.134	0.425420
1.135	0.425005
1.136	0.424591
1.137	0.424177
1.138	0.423764
1.139	0.423351
1.140	0.422938
1.141	0.422526
1.142	0.422114
1.143	0.421702
1.144	0.421291
1.145	0.420880
1.146	0.420470
1.147	0.420060
1.148	0.419650
1.149	0.419241
1.150	0.418832
1.151	0.418423
1.152	0.418015
1.153	0.417607
1.154	0.417200
1.155	0.416792
1.156	0.416386
1.157	0.415979
1.158	0.415573
1.159	0.415168
1.160	0.414762
1.161	0.414357
1.162	0.413953
1.163	0.413549
1.164	0.413145
1.165	0.412741
1.166	0.412338
1.167	0.411936
1.168	0.411533
1.169	0.411131
1.170	0.410730
1.171	0.410328
1.172	0.409927
1.173	0.409527
1.174	0.409127
1.175	0.408727
1.176	0.408327
1.177	0.407928
1.178	0.407530
1.179	0.407131
1.180	0.406733
1.181	0.406336
1.182	0.405938
1.183	0.405541
1.184	0.405145
1.185	0.404749
1.186	0.404353
1.187	0.403957
1.188	0.403562
1.189	0.403168
1.190	0.402773
1.191	0.402379
1.192	0.401985
1.193	0.401592
1.194	0.401199
1.195	0.400807
1.196	0.400414
1.197	0.400023
1.198	0.399631
1.199	0.399240
1.200	0.398849
1.201	0.398459
1.202	0.398069
1.203	0.397679
1.204	0.397289
1.205	0.396900
1.206	0.396512
1.207	0.396123
1.208	0.395736
1.209	0.395348
1.210	0.394961
1.211	0.394574
1.212	0.394187
1.213	0.393801
1.214	0.393415
1.215	0.393030
1.216	0.392645
1.217	0.392260
1.218	0.391876
1.219	0.391492
1.220	0.391108
1.221	0.390725
1.222	0.390342
1.223	0.389959
1.224	0.389577
1.225	0.389195
1.226	0.388813
1.227	0.388432
1.228	0.388051
1.229	0.387671
1.230	0.387290
1.231	0.386911
1.232	0.386531
1.233	0.386152
1.234	0.385773
1.235	0.385395
1.236	0.385017
1.237	0.384639
1.238	0.384262
1.239	0.383885
1.240	0.383508
1.241	0.383132
1.242	0.382756
1.243	0.382380
1.244	0.382005
1.245	0.381630
1.246	0.381255
1.247	0.380881
